# m=1, k=39.4784, p=3
# x0=0, v0=1
# t_start=0, t_end=15, h=0.001
#   t          x(t)               v(t)               KE(t)              PE(x(t)) 
0.0000  0.000000000000000e+00  1.000000000000000e+00  5.000000000000000e-01  0.000000000000000e+00
0.0100  9.999967101380498e-03  9.999868405707613e-01  4.999868406573466e-01  1.315934265666916e-05
0.0200  1.999947362901483e-02  9.998947269904300e-01  4.998947325316333e-01  1.052674683796206e-04
0.0300  2.999733534206488e-02  9.996447258001329e-01  4.996447889100114e-01  3.552110900174851e-04
0.0400  3.999157895077230e-02  9.991579710589982e-01  4.991583255653669e-01  8.416744346845198e-04
0.0500  4.997944315496986e-02  9.983557421866025e-01  4.983570939784809e-01  1.642906021599230e-03
0.0600  5.995738061604899e-02  9.971595727827035e-01  4.971636067960919e-01  2.836393204023456e-03
0.0700  6.992106117108220e-02  9.954913901880031e-01  4.955015539692216e-01  4.498446030935132e-03
0.0800  7.986537659473439e-02  9.932736854033074e-01  4.932963070573342e-01  6.703692942869681e-03
0.0900  8.978444720989123e-02  9.904297128027567e-01  4.904755080012756e-01  9.524491998981208e-03
0.1000  9.967163064123831e-02  9.868837188610378e-01  4.869697372764959e-01  1.303026272381905e-02
0.1100  1.095195329970099e-01  9.825611988663808e-01  4.827132547588698e-01  1.728674524150818e-02
0.1200  1.193200227524764e-01  9.773891803130186e-01  4.776448048964771e-01  2.235519510396852e-02
0.1300  1.290642475941734e-01  9.712965313616030e-01  4.717084759175407e-01  2.829152408297652e-02
0.1400  1.387426544661329e-01  9.642142924275494e-01  4.648546008607799e-01  3.514539913981228e-02
0.1500  1.483450130382556e-01  9.560760286098093e-01  4.570406862411525e-01  4.295931375951681e-02
0.1600  1.578604427922897e-01  9.468182003114171e-01  4.482323522204754e-01  5.176764778027271e-02
0.1700  1.672774438925555e-01  9.363805490342508e-01  4.384042663048425e-01  6.159573369598518e-02
0.1800  1.765839319765275e-01  9.247064949605703e-01  4.275410509111316e-01  7.245894908977540e-02
0.1900  1.857672769646852e-01  9.117435425704377e-01  4.156381437094457e-01  8.436185629153962e-02
0.2000  1.948143459497747e-01  8.974436901951554e-01  4.027025885355490e-01  9.729741146551231e-02
0.2100  2.037115501829722e-01  8.817638390809145e-01  3.887537339553565e-01  1.112462660457778e-01
0.2200  2.124448961286808e-01  8.646661972428279e-01  3.738238163271865e-01  1.261761836740163e-01
0.2300  2.210000405111935e-01  8.461186731365467e-01  3.579584045151751e-01  1.420415954860914e-01
0.2400  2.293623492256636e-01  8.260952539717731e-01  3.412166843173441e-01  1.587833156839800e-01
0.2500  2.375169599332982e-01  8.045763633480681e-01  3.236715622292013e-01  1.763284377721739e-01
0.2600  2.454488481070489e-01  7.815491928167098e-01  3.054095703962253e-01  1.945904296051933e-01
0.2700  2.531428962400400e-01  7.570080019706490e-01  2.865305575237971e-01  2.134694424776569e-01
0.2800  2.605839658753223e-01  7.309543817443763e-01  2.671471540956517e-01  2.328528459058292e-01
0.2900  2.677569720631157e-01  7.033974757720856e-01  2.473840044612708e-01  2.526159955402284e-01
0.3000  2.746469598014005e-01  6.743541549096632e-01  2.273767631219630e-01  2.726232368795454e-01
0.3100  2.812391819684419e-01  6.438491403757359e-01  2.072708577812871e-01  2.927291422202223e-01
0.3200  2.875191782125163e-01  6.119150714092957e-01  1.872200273089217e-01  3.127799726925805e-01
0.3300  2.934728542256788e-01  5.785925138741840e-01  1.673846485556239e-01  3.326153514458631e-01
0.3400  2.990865607957355e-01  5.439299068595793e-01  1.479298717881353e-01  3.520701282133298e-01
0.3500  3.043471720045043e-01  5.079834450239614e-01  1.290235902092060e-01  3.709764097922310e-01
0.3600  3.092421619217133e-01  4.708168951988757e-01  1.108342744023545e-01  3.891657255990493e-01
0.3700  3.137596791331480e-01  4.325013465970823e-01  9.352870740414478e-02  4.064712925972224e-01
0.3800  3.178886184394391e-01  3.931148948442282e-01  7.726966027419430e-02  4.227303397271339e-01
0.3900  3.216186890685917e-01  3.527422609590714e-01  6.221355133325879e-02  4.377864486680298e-01
0.4000  3.249404787611976e-01  3.114743473281724e-01  4.850813452175549e-02  4.514918654794933e-01
0.4100  3.278455131123416e-01  2.694077336393112e-01  3.629026347233503e-02  4.637097365288760e-01
0.4200  3.303263095883593e-01  2.266441166355436e-01  2.568377780275295e-02  4.743162221984230e-01
0.4300  3.323764256795660e-01  1.832896984104016e-01  1.679755677168799e-02  4.832024432294577e-01
0.4400  3.339905007013334e-01  1.394545287661607e-01  9.723782796695977e-03  4.902762172044245e-01
0.4500  3.351642908148229e-01  9.525180788406361e-02  4.536453452591281e-03  4.954635465485095e-01
0.4600  3.358946969044307e-01  5.079715619187731e-02  1.290175538590990e-03  4.987098244624968e-01
0.4700  3.361797850206086e-01  6.207858845924717e-03  1.926875572546288e-05  4.999807312453572e-01
0.4800  3.360187991730703e-01  -3.839790734029953e-02  7.371996440571144e-04  4.992628003570274e-01
0.4900  3.354121663392690e-01  -8.290185640015429e-02  3.436358897295902e-03  4.965636411037975e-01
0.5000  3.343614936351272e-01  -1.271863768740505e-01  8.088187231174009e-03  4.919118127699353e-01
0.5100  3.328695576779768e-01  -1.711353083302449e-01  1.464364687864400e-02  4.853563531224874e-01
0.5200  3.309402862541468e-01  -2.146347025685648e-01  2.303402777334815e-02  4.769659722278106e-01
0.5300  3.285787324842621e-01  -2.575735615816062e-01  3.317206981291675e-02  4.668279301882737e-01
0.5400  3.257910417567695e-01  -2.998445447286059e-01  4.495337550175248e-02  4.550466244994736e-01
0.5500  3.225844117732521e-01  -3.413446380775635e-01  5.825808097215142e-02  4.417419190291123e-01
0.5600  3.189670461165767e-01  -3.819757794798790e-01  7.295274805463058e-02  4.270472519466717e-01
0.5700  3.149481018138315e-01  -4.216454336451008e-01  8.889243585688253e-02  4.111075641444575e-01
0.5800  3.105376314194862e-01  -4.602671122657747e-01  1.059229073167376e-01  3.940770926846384e-01
0.5900  3.057465201895223e-01  -4.977608350868548e-01  1.238829244731815e-01  3.761170755282270e-01
0.6000  3.005864189539308e-01  -5.340535287027630e-01  1.426065857599365e-01  3.573934142415002e-01
0.6100  2.950696733225774e-01  -5.690793607796224e-01  1.619256594326718e-01  3.380743405687871e-01
0.6200  2.892092498778562e-01  -6.027800083221460e-01  1.816718692164232e-01  3.183281307850517e-01
0.6300  2.830186600167758e-01  -6.351048595164424e-01  2.016790912907000e-01  2.983209087107834e-01
0.6400  2.765118821053660e-01  -6.660111495648295e-01  2.217854256723329e-01  2.782145743291510e-01
0.6500  2.697032825998659e-01  -6.954640317712979e-01  2.418351097437944e-01  2.581648902576816e-01
0.6600  2.626075367725957e-01  -7.234365859228480e-01  2.616802469258531e-01  2.383197530756066e-01
0.6700  2.552395496562963e-01  -7.499097667308763e-01  2.811823291191786e-01  2.188176708822560e-01
0.6800  2.476143777898102e-01  -7.748722957385210e-01  3.002135373515430e-01  1.997864626498583e-01
0.6900  2.397471523110541e-01  -7.983205006571413e-01  3.186578108847344e-01  1.813421891166251e-01
0.7000  2.316530039011902e-01  -8.202581065628686e-01  3.364116806910512e-01  1.635883193102591e-01
0.7100  2.233469900376358e-01  -8.406959837597241e-01  3.533848685548651e-01  1.466151314463886e-01
0.7200  2.148440249639973e-01  -8.596518573985802e-01  3.695006579644144e-01  1.304993420367768e-01
0.7300  2.061588127330889e-01  -8.771499841327017e-01  3.846960473319995e-01  1.153039526691240e-01
0.7400  1.973057836257987e-01  -8.932208011940675e-01  3.989216998428859e-01  1.010783001581652e-01
0.7500  1.882990341945577e-01  -9.079005532950115e-01  4.121417073366940e-01  8.785829266428143e-02
0.7600  1.791522711263386e-01  -9.212309027032131e-01  4.243331880476884e-01  7.566681195320883e-02
0.7700  1.698787590672110e-01  -9.332585277120593e-01  4.354857397736403e-01  6.451426022717739e-02
0.7800  1.604912724991451e-01  -9.440347145410523e-01  4.456007711293030e-01  5.439922887143472e-02
0.7900  1.510020517105718e-01  -9.536149474609913e-01  4.546907340105146e-01  4.530926599014373e-02
0.8000  1.414227628556409e-01  -9.620585016551489e-01  4.627782803034751e-01  3.722171969710525e-02
0.8100  1.317644620535777e-01  -9.694280430096911e-01  4.698953652867998e-01  3.010463471370491e-02
0.8200  1.220375634392985e-01  -9.757892386831539e-01  4.760823191649246e-01  2.391768083550724e-02
0.8300  1.122518110397441e-01  -9.812103819445358e-01  4.813869068178709e-01  1.861309318249181e-02
0.8400  1.024162543173320e-01  -9.857620344006897e-01  4.858633942328932e-01  1.413660576740496e-02
0.8500  9.253922719257268e-02  -9.895166883638269e-01  4.895716382752575e-01  1.042836172498066e-02
0.8600  8.262833033221686e-02  -9.925484517459947e-01  4.925762145316856e-01  7.423785468497822e-03
0.8700  7.269041646720124e-02  -9.949327575155507e-01  4.949455959887488e-01  5.054404011385515e-03
0.8800  6.273157848599932e-02  -9.967460994163917e-01  4.967513933508957e-01  3.248606649195324e-03
0.8900  5.275714003355649e-02  -9.980657953386075e-01  4.980676659124436e-01  1.932334087610251e-03
0.9000  4.277164833355544e-02  -9.989697794432497e-01  4.989703101204475e-01  1.029689879575344e-03
0.9100  3.277886894203959e-02  -9.995364238871860e-01  4.995365313385922e-01  4.634686614061746e-04
0.9200  2.278178213311506e-02  -9.998443907690451e-01  4.998444028761614e-01  1.555971238189736e-04
0.9300  1.278258061222683e-02  -9.999725147259475e-01  4.999725151036676e-01  2.748489630119222e-05
0.9400  2.782668249018794e-03  -9.999997164544100e-01  4.999997164544502e-01  2.835455134999605e-07
0.9500  -7.217322624708445e-03  -9.999950523523554e-01  4.999950523645950e-01  4.947283978358906e-06
0.9600  -1.721704245468927e-02  -9.999328368602941e-01  4.999328391157378e-01  6.716053284344860e-05
0.9700  -2.721552626577617e-02  -9.997346941162192e-01  4.997347293098252e-01  2.652703387702806e-04
0.9800  -3.721102026246412e-02  -9.993217329038151e-01  4.993219629269420e-01  6.780367216742978e-04
0.9900  -4.720098226938215e-02  -9.986151825884747e-01  4.986161414481063e-01  1.383858200537155e-03
1.0000  -5.718208341241541e-02  -9.975364933354157e-01  4.975395277679590e-01  2.460471880718109e-03
1.0100  -6.715021095632792e-02  -9.960074671477357e-01  4.960154373070239e-01  3.984562341692663e-03
1.0200  -7.710047260552198e-02  -9.939504193860920e-01  4.939687180988940e-01  6.031281549868272e-03
1.0300  -8.702720257035734e-02  -9.912883702597183e-01  4.913263165060842e-01  8.673683142729651e-03
1.0400  -9.692396969534560e-02  -9.879452655720665e-01  4.880179238831305e-01  1.198207576574014e-02
1.0500  -1.067835879371989e-01  -9.838462257650391e-01  4.839766979760561e-01  1.602330167287638e-02
1.0600  -1.165981294698250e-01  -9.789178220357384e-01  4.791400511495968e-01  2.085994849940213e-02
1.0700  -1.263589406796337e-01  -9.730883780016699e-01  4.734504957009604e-01  2.654950394810892e-02
1.0800  -1.360566612976832e-01  -9.662882950678880e-01  4.668565345926030e-01  3.314346505654028e-02
1.0900  -1.456812468950336e-01  -9.584503993068909e-01  4.593135839657693e-01  4.068641568345037e-02
1.1000  -1.552219949440017e-01  -9.495103073041522e-01  4.507849118384128e-01  4.921508781088543e-02
1.1100  -1.646675746207113e-01  -9.394068080547850e-01  4.412425755098399e-01  5.875742413953766e-02
1.1200  -1.740060604933306e-01  -9.280822576265122e-01  4.306683384605619e-01  6.933166118889518e-02
1.1300  -1.832249702057109e-01  -9.154829829380812e-01  4.190545460246035e-01  8.094545362493213e-02
1.1400  -1.923113062278417e-01  -9.015596906484340e-01  4.064049379010500e-01  9.359506174856236e-02
1.1500  -2.012516017028096e-01  -8.862678768186965e-01  3.927353747403601e-01  1.072646249093263e-01
1.1600  -2.100319703750162e-01  -8.695682327052527e-01  3.780744556650683e-01  1.219255439846881e-01
1.1700  -2.186381605366359e-01  -8.514270417768497e-01  3.624640037344387e-01  1.375359959153827e-01
1.1800  -2.270556128790883e-01  -8.318165628309563e-01  3.459593970999531e-01  1.540406025499277e-01
1.1900  -2.352695220841950e-01  -8.107153939234040e-01  3.286297249721901e-01  1.713702746777437e-01
1.2000  -2.432649019362965e-01  -7.881088117291851e-01  3.105577495625941e-01  1.894422500873852e-01
1.2100  -2.510266536825984e-01  -7.639890809290062e-01  2.918396578893738e-01  2.081603417606430e-01
1.2200  -2.585396373151795e-01  -7.383557282726965e-01  2.725845907365520e-01  2.274154089134938e-01
1.2300  -2.657887453952409e-01  -7.112157761125433e-01  2.529139400956836e-01  2.470860595543828e-01
1.2400  -2.727589789891851e-01  -6.825839304312844e-01  2.329604110415102e-01  2.670395886085681e-01
1.2500  -2.794355252379103e-01  -6.524827187133438e-01  2.128668491097783e-01  2.871331505403034e-01
1.2600  -2.858038360361886e-01  -6.209425734245416e-01  1.927848397455461e-01  3.072151599045303e-01
1.2700  -2.918497072591216e-01  -5.880018573734331e-01  1.728730921373036e-01  3.271269075127601e-01
1.2800  -2.975593579382982e-01  -5.537068278229065e-01  1.532956255888529e-01  3.467043740611909e-01
1.2900  -3.029195087622925e-01  -5.181115368976875e-01  1.342197823332419e-01  3.657802173167752e-01
1.3000  -3.079174592552856e-01  -4.812776665836438e-01  1.158140961760985e-01  3.841859034738870e-01
1.3100  -3.125411629745727e-01  -4.432742974277574e-01  9.824605138003598e-02  4.017539482699140e-01
1.3200  -3.167793000630865e-01  -4.041776109107215e-01  8.167977058074929e-02  4.183202290691622e-01
1.3300  -3.206213464972569e-01  -3.640705263628873e-01  6.627367408307490e-02  4.337263255667969e-01
1.3400  -3.240576393838173e-01  -3.230422742127102e-01  5.217815546425993e-02  4.478218441855719e-01
1.3500  -3.270794376816678e-01  -2.811879082777027e-01  3.953331988079489e-02  4.604666797689980e-01
1.3600  -3.296789777565551e-01  -2.386077607131588e-01  2.846683173627403e-02  4.715331679134831e-01
1.3700  -3.318495232168716e-01  -1.954068441052118e-01  1.909191736157927e-02  4.809080822881460e-01
1.3800  -3.335854085278896e-01  -1.516942060138991e-01  1.150556606909363e-02  4.884944335806047e-01
1.3900  -3.348820759586146e-01  -1.075822420212592e-01  5.786969399160393e-03  4.942130302505168e-01
1.4000  -3.357361054793869e-01  -6.318597400266937e-02  1.996233655333005e-03  4.980037659943296e-01
1.4100  -3.361452372984426e-01  -1.862230090184794e-02  1.733950454394833e-04  4.998266046042155e-01
1.4200  -3.361083868007919e-01  2.599077026151429e-02  3.377600693934078e-04  4.996622395802612e-01
1.4300  -3.356256517317923e-01  7.053490509792230e-02  2.487586418586453e-03  4.975124132310747e-01
1.4400  -3.346983115494088e-01  1.148922260212832e-01  6.600111800062817e-03  4.933998878496123e-01
1.4500  -3.333288189520179e-01  1.589460915850905e-01  1.263193001508799e-02  4.873680696346073e-01
1.4600  -3.315207836713729e-01  2.025818627574501e-01  2.051970555913918e-02  4.794802940905820e-01
1.4700  -3.292789487016186e-01  2.456876481261059e-01  3.018121022086862e-02  4.698187894288837e-01
1.4800  -3.266091592137124e-01  2.881550203702944e-01  4.151665788230239e-02  4.584833417674848e-01
1.4900  -3.235183244789993e-01  3.298796968043555e-01  5.441030718186676e-02  4.455896924679574e-01
1.5000  -3.200143731948223e-01  3.707621773778619e-01  6.873229608698656e-02  4.312677035628758e-01
1.5100  -3.161062026678927e-01  4.107083341955098e-01  8.434066788882530e-02  4.156593317610749e-01
1.5200  -3.118036223667596e-01  4.496299473820693e-01  1.010835447914012e-01  3.989164548585358e-01
1.5300  -3.071172924023720e-01  4.874451829466486e-01  1.188014031889458e-01  3.811985964610248e-01
1.5400  -3.020586575348258e-01  5.240790091787104e-01  1.373294039308694e-01  3.626705957191308e-01
1.5500  -2.966398773345347e-01  5.594635490173707e-01  1.564997313395560e-01  3.435002683104686e-01
1.5600  -2.908737531470464e-01  5.935383667571946e-01  1.761438964063990e-01  3.238561032436433e-01
1.5700  -2.847736525224969e-01  6.262506883700433e-01  1.960949623419765e-01  3.039050373080762e-01
1.5800  -2.783534317734074e-01  6.575555556164610e-01  2.161896543610363e-01  2.838103452890194e-01
1.5900  -2.716273573184734e-01  6.874159149758593e-01  2.362703200810489e-01  2.637296795690011e-01
1.6000  -2.646100264556422e-01  7.158026432281770e-01  2.561867120262224e-01  2.438132876238136e-01
1.6100  -2.573162881856894e-01  7.426945122585071e-01  2.757975692694509e-01  2.242024303805622e-01
1.6200  -2.497611646784084e-01  7.680780963202523e-01  2.949719810234713e-01  2.050280186265104e-01
1.6300  -2.419597739381915e-01  7.919476255737199e-01  3.135905208259264e-01  1.864094788240156e-01
1.6400  -2.339272541850708e-01  8.143047902101225e-01  3.315461456795758e-01  1.684538539703188e-01
1.6500  -2.256786904221044e-01  8.351584998723013e-01  3.487448599544763e-01  1.512551396953639e-01
1.6600  -2.172290436112594e-01  8.545246033920272e-01  3.651061489011507e-01  1.348938507486286e-01
1.6700  -2.085930828285879e-01  8.724255740803544e-01  3.805631911547179e-01  1.194368084949948e-01
1.6800  -1.997853207164133e-01  8.888901659350131e-01  3.950628635479876e-01  1.049371361016540e-01
1.6900  -1.908199524963261e-01  9.039530461717321e-01  4.085655548415768e-01  9.143444480798983e-02
1.7000  -1.817107987528333e-01  9.176544094505559e-01  4.210448075920242e-01  7.895519205746472e-02
1.7100  -1.724712521442748e-01  9.300395790607631e-01  4.324868093097607e-01  6.751319033964907e-02
1.7200  -1.631142281457935e-01  9.411586001568558e-01  4.428897553246062e-01  5.711024432472395e-02
1.7300  -1.536521198793056e-01  9.510658299118833e-01  4.522631064129896e-01  4.773689323626084e-02
1.7400  -1.440967570380874e-01  9.598195291820599e-01  4.606267642996356e-01  3.937323534953643e-02
1.7500  -1.344593688691681e-01  9.674814599673431e-01  4.680101876902709e-01  3.198981195882477e-02
1.7600  -1.247505511355438e-01  9.741164926154056e-01  4.744514705926697e-01  2.554852905635245e-02
1.7700  -1.149802369425206e-01  9.797922263600108e-01  4.799964034177533e-01  2.000359623119875e-02
1.7800  -1.051576712784148e-01  9.845786264175400e-01  4.846975357991249e-01  1.530246384976104e-02
1.7900  -9.529138908945398e-02  9.885476804950916e-01  4.886132583061128e-01  1.138674134271184e-02
1.8000  -8.538919668202623e-02  9.917730771973217e-01  4.918069183267223e-01  8.193081322046101e-03
1.8100  -7.545815622234170e-02  9.943299084634167e-01  4.943459834324334e-01  5.654016216284485e-03
1.8200  -6.550457308397201e-02  9.962943978259186e-01  4.963012635696548e-01  3.698736079018125e-03
1.8300  -5.553398577742797e-02  9.977436559644537e-01  4.977462015086571e-01  2.253798139977017e-03
1.8400  -4.555115818269626e-02  9.987554647338173e-01  4.987562391678316e-01  1.243760480769717e-03
1.8500  -3.556007379521118e-02  9.994080905807254e-01  4.994082657591057e-01  5.917338894691696e-04
1.8600  -2.556393168779213e-02  9.997801280295340e-01  4.997801522013757e-01  2.198474471792352e-04
1.8700  -1.556514388530682e-02  9.999503737163860e-01  4.999503749477699e-01  4.962470077134383e-05
1.8800  -5.565333844885327e-03  9.999977312850969e-01  4.999977312876705e-01  2.268360863822538e-06
1.8900  4.434661722090874e-03  9.999988516452061e-01  4.999988516458654e-01  1.147677780952074e-06
1.9000  1.443452016324617e-02  9.999604212974992e-01  4.999604220807360e-01  3.957724291660436e-05
1.9100  2.443349026726888e-02  9.998080278501337e-01  4.998080462767868e-01  1.919530468783402e-04
1.9200  3.443003779563793e-02  9.994627601699578e-01  4.994629044832753e-01  5.370948404089239e-04
1.9300  4.442183982611797e-02  9.988458053294819e-01  4.988464714121506e-01  1.153527911559148e-03
1.9400  5.440578616699355e-02  9.978785402079592e-01  4.978807905037838e-01  2.119208819957706e-03
1.9500  6.437798184194472e-02  9.964826539807486e-01  4.964888398422582e-01  3.511159481521360e-03
1.9600  7.433375095308341e-02  9.945803012002049e-01  4.945949877677451e-01  5.405011556078362e-03
1.9700  8.426764222592090e-02  9.920942850091842e-01  4.921255351739422e-01  7.874464149931147e-03
