# omega0=1, alpha=2
# theta0=3.14159, theta_dot0=0
# t_start=0, t_end=50, h=0.00911928
#   t          x(t)                 v(t)       
0  3.141590000000000e+00  0.000000000000000e+00
9.119282013323059e-02 3.141589989600384e+00 -2.215098850491526e-07
1.823856402664613e-01 3.141589960669349e+00 -4.077746757039041e-07
2.735784603996920e-01 3.141589916076375e+00 -5.660873720019183e-07
3.647712805329227e-01 3.141589858093398e+00 -7.023124499763378e-07
4.559641006661534e-01 3.141589788511717e+00 -8.211686370681526e-07
5.471569207993838e-01 3.141589708735753e+00 -9.264558272435804e-07
6.383497409326140e-01 3.141589619858235e+00 -1.021237175105380e-06
7.295425610658441e-01 3.141589522720473e+00 -1.107985226897773e-06
8.207353811990743e-01 3.141589417960679e+00 -1.188699195704541e-06
9.119282013323045e-01 3.141589306052681e+00 -1.264999083722841e-06
1.003121021465535e+00 3.141589187336931e+00 -1.338201227921534e-06
1.094313841598765e+00 3.141589062045334e+00 -1.409378940629302e-06
1.185506661731995e+00 3.141588930321112e+00 -1.479411191437981e-06
1.276699481865225e+00 3.141588792234672e+00 -1.549021694376640e-06
1.367892301998455e+00 3.141588647796286e+00 -1.618810297559646e-06
1.459085122131685e+00 3.141588496966191e+00 -1.689278197231845e-06
1.550277942264916e+00 3.141588339662636e+00 -1.760848197598264e-06
1.641470762398146e+00 3.141588175768250e+00 -1.833880996744671e-06
1.732663582531376e+00 3.141588005135096e+00 -1.908688284833146e-06
1.823856402664606e+00 3.141587827588639e+00 -1.985543285728128e-06
1.915049222797836e+00 3.141587642930849e+00 -2.064689248507378e-06
2.006242042931067e+00 3.141587450942619e+00 -2.146346295376209e-06
2.097434863064297e+00 3.141587251385605e+00 -2.230716951796089e-06
2.188627683197527e+00 3.141587044003625e+00 -2.317990620918575e-06
2.279820503330757e+00 3.141586828523681e+00 -2.408347212097000e-06
2.371013323463987e+00 3.141586604656689e+00 -2.501960092227470e-06
2.462206143597217e+00 3.141586372097958e+00 -2.598998495434071e-06
2.553398963730448e+00 3.141586130527477e+00 -2.699629499436286e-06
2.644591783863678e+00 3.141585879610035e+00 -2.804019656015839e-06
2.735784603996908e+00 3.141585618995202e+00 -2.912336345720838e-06
2.826977424130138e+00 3.141585348317204e+00 -3.024748912939839e-06
2.918170244263368e+00 3.141585067194697e+00 -3.141429626726554e-06
3.009363064396598e+00 3.141584775230462e+00 -3.262554503622328e-06
3.100555884529828e+00 3.141584472011032e+00 -3.388304021866091e-06
3.191748704663059e+00 3.141584157106251e+00 -3.518863750510001e-06
3.282941524796289e+00 3.141583830068788e+00 -3.654424912317079e-06
3.374134344929519e+00 3.141583490433598e+00 -3.795184895769799e-06
3.465327165062749e+00 3.141583137717335e+00 -3.941347728677047e-06
3.556519985195979e+00 3.141582771417726e+00 -4.093124523350974e-06
3.647712805329209e+00 3.141582391012909e+00 -4.250733901494330e-06
3.738905625462440e+00 3.141581995960727e+00 -4.414402405210864e-06
3.830098445595670e+00 3.141581585697986e+00 -4.584364899905432e-06
3.921291265728900e+00 3.141581159639681e+00 -4.760864973236290e-06
4.012484085862130e+00 3.141580717178181e+00 -4.944155333863431e-06
4.103676905995361e+00 3.141580257682376e+00 -5.134498213403567e-06
4.194869726128591e+00 3.141579780496794e+00 -5.332165773335917e-06
4.286062546261821e+00 3.141579284940678e+00 -5.537440519945314e-06
4.377255366395051e+00 3.141578770307016e+00 -5.750615728795139e-06
4.468448186528281e+00 3.141578235861548e+00 -5.971995880117635e-06
4.559641006661511e+00 3.141577680841717e+00 -6.201897106970492e-06
4.650833826794742e+00 3.141577104455588e+00 -6.440647657421281e-06
4.742026646927972e+00 3.141576505880724e+00 -6.688588371839051e-06
4.833219467061202e+00 3.141575884263012e+00 -6.946073176072179e-06
4.924412287194432e+00 3.141575238715446e+00 -7.213469592238305e-06
5.015605107327662e+00 3.141574568316866e+00 -7.491159267906694e-06
5.106797927460892e+00 3.141573872110644e+00 -7.779538524215152e-06
5.197990747594122e+00 3.141573149103320e+00 -8.079018924268836e-06
5.289183567727353e+00 3.141572398263182e+00 -8.390027863010445e-06
5.380376387860583e+00 3.141571618518802e+00 -8.713009178840044e-06
5.471569207993813e+00 3.141570808757500e+00 -9.048423788454943e-06
5.562762028127043e+00 3.141569967823763e+00 -9.396750345795722e-06
5.653954848260273e+00 3.141569094517589e+00 -9.758485926172679e-06
5.745147668393503e+00 3.141568187592786e+00 -1.013414673629493e-05
5.836340488526734e+00 3.141567245755181e+00 -1.052426885143499e-05
5.927533308659964e+00 3.141566267660783e+00 -1.092940898108962e-05
6.018726128793194e+00 3.141565251913862e+00 -1.135014526372569e-05
6.109918948926424e+00 3.141564197064959e+00 -1.178707809196768e-05
6.201111769059654e+00 3.141563101608813e+00 -1.224083096978126e-05
6.292304589192884e+00 3.141561963982218e+00 -1.271205140238593e-05
6.383497409326115e+00 3.141560782561793e+00 -1.320141182029902e-05
6.474690229459345e+00 3.141559555661659e+00 -1.370961053918039e-05
6.565883049592575e+00 3.141558281531041e+00 -1.423737275642239e-05
6.657075869725805e+00 3.141556958351765e+00 -1.478545158588595e-05
6.748268689859035e+00 3.141555584235666e+00 -1.535462913287282e-05
6.839461509992265e+00 3.141554157221892e+00 -1.594571761010888e-05
6.930654330125495e+00 3.141552675274104e+00 -1.655956049689771e-05
7.021847150258726e+00 3.141551136277575e+00 -1.719703374279521e-05
7.113039970391956e+00 3.141549538036171e+00 -1.785904701752174e-05
7.204232790525186e+00 3.141547878269213e+00 -1.854654500908206e-05
7.295425610658416e+00 3.141546154608227e+00 -1.926050877201185e-05
7.386618430791646e+00 3.141544364593563e+00 -2.000195712718608e-05
7.477811250924876e+00 3.141542505670883e+00 -2.077194811568082e-05
7.569004071058107e+00 3.141540575187522e+00 -2.157158050868803e-05
7.660196891191337e+00 3.141538570388692e+00 -2.240199537537694e-05
7.751389711324567e+00 3.141536488413563e+00 -2.326437771133117e-05
7.842582531457797e+00 3.141534326291174e+00 -2.415995812934714e-05
7.933775351591027e+00 3.141532080936191e+00 -2.509001461563596e-05
8.024968171724257e+00 3.141529749144512e+00 -2.605587435346072e-05
8.116160991857488e+00 3.141527327588689e+00 -2.705891561698604e-05
8.207353811990718e+00 3.141524812813180e+00 -2.810056973820739e-05
8.298546632123948e+00 3.141522201229421e+00 -2.918232314931942e-05
8.389739452257178e+00 3.141519489110703e+00 -3.030571950379505e-05
8.480932272390408e+00 3.141516672586853e+00 -3.147236187930072e-05
8.572125092523638e+00 3.141513747638714e+00 -3.268391506531784e-05
8.663317912656868e+00 3.141510710092410e+00 -3.394210793856575e-05
8.754510732790099e+00 3.141507555613384e+00 -3.524873593025764e-05
8.845703552923329e+00 3.141504279700222e+00 -3.660566358813811e-05
8.936896373056559e+00 3.141500877678220e+00 -3.801482723715000e-05
9.028089193189789e+00 3.141497344692721e+00 -3.947823774255233e-05
9.119282013323019e+00 3.141493675702182e+00 -4.099798337948599e-05
9.210474833456249e+00 3.141489865470982e+00 -4.257623281286205e-05
9.301667653589480e+00 3.141485908561952e+00 -4.421523819204945e-05
9.392860473722710e+00 3.141481799328615e+00 -4.591733836464713e-05
9.484053293855940e+00 3.141477531907127e+00 -4.768496221394885e-05
9.575246113989170e+00 3.141473100207912e+00 -4.952063212499884e-05
9.666438934122400e+00 3.141468497906970e+00 -5.142696758405398e-05
9.757631754255630e+00 3.141463718436855e+00 -5.340668891656292e-05
9.848824574388860e+00 3.141458754977300e+00 -5.546262116899151e-05
9.940017394522091e+00 3.141453600445487e+00 -5.759769814019278e-05
1.003121021465532e+01 3.141448247485942e+00 -5.981496656785502e-05
1.012240303478855e+01 3.141442688460033e+00 -6.211759047620339e-05
1.021359585492178e+01 3.141436915435075e+00 -6.450885569105733e-05
1.030478867505501e+01 3.141430920173008e+00 -6.699217452859286e-05
1.039598149518824e+01 3.141424694118641e+00 -6.957109066470776e-05
1.048717431532147e+01 3.141418228387442e+00 -7.224928419187322e-05
1.057836713545470e+01 3.141411513752866e+00 -7.503057687056376e-05
1.066955995558793e+01 3.141404540633184e+00 -7.791893758285069e-05
1.076075277572116e+01 3.141397299077807e+00 -8.091848799604082e-05
1.085194559585439e+01 3.141389778753096e+00 -8.403350844416959e-05
1.094313841598762e+01 3.141381968927606e+00 -8.726844403607064e-05
1.103433123612085e+01 3.141373858456780e+00 -9.062791099832315e-05
1.112552405625408e+01 3.141365435767040e+00 -9.411670326284280e-05
1.121671687638731e+01 3.141356688839277e+00 -9.773979930750206e-05
1.130790969652054e+01 3.141347605191693e+00 -1.015023692605446e-04
1.139910251665377e+01 3.141338171861998e+00 -1.054097822782335e-04
1.149029533678700e+01 3.141328375388905e+00 -1.094676142066035e-04
1.158148815692023e+01 3.141318201792926e+00 -1.136816555380951e-04
1.167268097705346e+01 3.141307636556422e+00 -1.180579196745360e-04
1.176387379718669e+01 3.141296664602886e+00 -1.226026515082169e-04
1.185506661731992e+01 3.141285270275429e+00 -1.273223363332561e-04
1.194625943745315e+01 3.141273437314438e+00 -1.322237091000044e-04
1.203745225758638e+01 3.141261148834373e+00 -1.373137640258227e-04
1.212864507771961e+01 3.141248387299674e+00 -1.425997645757259e-04
1.221983789785284e+01 3.141235134499734e+00 -1.480892538271482e-04
1.231103071798607e+01 3.141221371522915e+00 -1.537900652339307e-04
1.240222353811930e+01 3.141207078729563e+00 -1.597103338044496e-04
1.249341635825254e+01 3.141192235723979e+00 -1.658585077102343e-04
1.258460917838577e+01 3.141176821325316e+00 -1.722433603413085e-04
1.267580199851900e+01 3.141160813537354e+00 -1.788740028257189e-04
1.276699481865223e+01 3.141144189517111e+00 -1.857598970309872e-04
1.285818763878546e+01 3.141126925542250e+00 -1.929108690659650e-04
1.294938045891869e+01 3.141108996977220e+00 -2.003371233025712e-04
1.304057327905192e+01 3.141090378238111e+00 -2.080492569373275e-04
1.313176609918515e+01 3.141071042756137e+00 -2.160582751131066e-04
1.322295891931838e+01 3.141050962939728e+00 -2.243756066234486e-04
1.331415173945161e+01 3.141030110135155e+00 -2.330131202212927e-04
1.340534455958484e+01 3.141008454585646e+00 -2.419831415551377e-04
1.349653737971807e+01 3.140985965388915e+00 -2.512984707575847e-04
1.358773019985130e+01 3.140962610453073e+00 -2.609724007108471e-04
1.367892301998453e+01 3.140938356450827e+00 -2.710187360152642e-04
1.377011584011776e+01 3.140913168771928e+00 -2.814518126882508e-04
1.386130866025099e+01 3.140887011473779e+00 -2.922865186212085e-04
1.395250148038422e+01 3.140859847230145e+00 -3.035383148242359e-04
1.404369430051745e+01 3.140831637277894e+00 -3.152232574883945e-04
1.413488712065068e+01 3.140802341361677e+00 -3.273580208972577e-04
1.422607994078391e+01 3.140771917676488e+00 -3.399599212207110e-04
1.431727276091714e+01 3.140740322808005e+00 -3.530469412243069e-04
1.440846558105037e+01 3.140707511670644e+00 -3.666377559299915e-04
1.449965840118360e+01 3.140673437443218e+00 -3.807517592645780e-04
1.459085122131683e+01 3.140638051502128e+00 -3.954090917338863e-04
1.468204404145006e+01 3.140601303351974e+00 -4.106306691623329e-04
1.477323686158329e+01 3.140563140553504e+00 -4.264382125386864e-04
1.486442968171652e+01 3.140523508648779e+00 -4.428542790106883e-04
1.495562250184975e+01 3.140482351083471e+00 -4.599022940726843e-04
1.504681532198298e+01 3.140439609126148e+00 -4.776065849924678e-04
1.513800814211621e+01 3.140395221784483e+00 -4.959924155244491e-04
1.522920096224944e+01 3.140349125718206e+00 -5.150860219593179e-04
1.532039378238267e+01 3.140301255148724e+00 -5.349146505610901e-04
1.541158660251590e+01 3.140251541765260e+00 -5.555065964453507e-04
1.550277942264913e+01 3.140199914627373e+00 -5.768912439536667e-04
1.559397224278236e+01 3.140146300063728e+00 -5.990991085823261e-04
1.568516506291559e+01 3.140090621566970e+00 -6.221618805249134e-04
1.577635788304882e+01 3.140032799684557e+00 -6.461124698904707e-04
1.586755070318205e+01 3.139972751905375e+00 -6.709850536623910e-04
1.595874352331528e+01 3.139910392542006e+00 -6.968151244646721e-04
1.604993634344851e+01 3.139845632608453e+00 -7.236395412050877e-04
1.614112916358174e+01 3.139778379693165e+00 -7.514965816673078e-04
1.623232198371497e+01 3.139708537827166e+00 -7.804259971272895e-04
1.632351480384820e+01 3.139636007347117e+00 -8.104690690717830e-04
1.641470762398143e+01 3.139560684753103e+00 -8.416686680992164e-04
1.650590044411466e+01 3.139482462560946e+00 -8.740693150877460e-04
1.659709326424789e+01 3.139401229148830e+00 -9.077172447172455e-04
1.668828608438112e+01 3.139316868598028e+00 -9.426604714356437e-04
1.677947890451435e+01 3.139229260527499e+00 -9.789488579638361e-04
1.687067172464758e+01 3.139138279922108e+00 -1.016634186436703e-03
1.696186454478081e+01 3.139043796954250e+00 -1.055770232281563e-03
1.705305736491404e+01 3.138945676798593e+00 -1.096412840939551e-03
1.714425018504727e+01 3.138843779439703e+00 -1.138620007538598e-03
1.723544300518050e+01 3.138737959472257e+00 -1.182451959632166e-03
1.732663582531373e+01 3.138628065893565e+00 -1.227971243121167e-03
1.741782864544696e+01 3.138513941888118e+00 -1.275242811481340e-03
1.750902146558019e+01 3.138395424603832e+00 -1.324334118423274e-03
1.760021428571342e+01 3.138272344919681e+00 -1.375315214117177e-03
1.769140710584665e+01 3.138144527204398e+00 -1.428258845118506e-03
1.778259992597988e+01 3.138011789065879e+00 -1.483240558137377e-03
1.787379274611311e+01 3.137873941090944e+00 -1.540338807799059e-03
1.796498556624634e+01 3.137730786575091e+00 -1.599635068548697e-03
1.805617838637957e+01 3.137582121241842e+00 -1.661213950859331e-03
1.814737120651280e+01 3.137427732951288e+00 -1.725163321908349e-03
1.823856402664603e+01 3.137267401397429e+00 -1.791574430894038e-03
1.832975684677927e+01 3.137100897793859e+00 -1.860542039169517e-03
1.842094966691250e+01 3.136927984547362e+00 -1.932164555379463e-03
1.851214248704573e+01 3.136748414918944e+00 -2.006544175790925e-03
1.860333530717896e+01 3.136561932671822e+00 -2.083787030017421e-03
1.869452812731219e+01 3.136368271705887e+00 -2.164003332342801e-03
1.878572094744542e+01 3.136167155678080e+00 -2.247307538859025e-03
1.887691376757865e+01 3.135958297608182e+00 -2.333818510640745e-03
1.896810658771188e+01 3.135741399469431e+00 -2.423659683187200e-03
1.905929940784511e+01 3.135516151763397e+00 -2.516959242371390e-03
1.915049222797834e+01 3.135282233078502e+00 -2.613850307144691e-03
1.924168504811157e+01 3.135039309631565e+00 -2.714471119255039e-03
1.933287786824480e+01 3.134787034791710e+00 -2.818965240246590e-03
1.942407068837803e+01 3.134525048585973e+00 -2.927481756017936e-03
1.951526350851126e+01 3.134252977185894e+00 -3.040175489227587e-03
1.960645632864449e+01 3.133970432374376e+00 -3.157207219844676e-03
1.969764914877772e+01 3.133677010992043e+00 -3.278743914155161e-03
1.978884196891095e+01 3.133372294362315e+00 -3.404958962545228e-03
1.988003478904418e+01 3.133055847694394e+00 -3.536032426394256e-03
1.997122760917741e+01 3.132727219463300e+00 -3.672151294423358e-03
2.006242042931064e+01 3.132385940766088e+00 -3.813509748857309e-03
2.015361324944387e+01 3.132031524653325e+00 -3.960309441771629e-03
2.024480606957710e+01 3.131663465434903e+00 -4.112759782008821e-03
2.033599888971033e+01 3.131281237959172e+00 -4.271078233062777e-03
2.042719170984356e+01 3.130884296864401e+00 -4.435490622344371e-03
2.051838452997679e+01 3.130472075801505e+00 -4.606231462255890e-03
2.060957735011002e+01 3.130043986626927e+00 -4.783544283517410e-03
2.070077017024325e+01 3.129599418564555e+00 -4.967681981203791e-03
2.079196299037648e+01 3.129137737335487e+00 -5.158907173966833e-03
2.088315581050971e+01 3.128658284254405e+00 -5.357492576934417e-03
2.097434863064294e+01 3.128160375291313e+00 -5.563721388794505e-03
2.106554145077617e+01 3.127643300097309e+00 -5.777887693589742e-03
2.115673427090940e+01 3.127106320993015e+00 -6.000296877765988e-03
2.124792709104263e+01 3.126548671918268e+00 -6.231266063036919e-03
2.133911991117586e+01 3.125969557341587e+00 -6.471124555644284e-03
2.143031273130909e+01 3.125368151127908e+00 -6.720214312613060e-03
2.152150555144232e+01 3.124743595362991e+00 -6.978890425620324e-03
2.161269837157555e+01 3.124094999132884e+00 -7.247521623114846e-03
2.170389119170878e+01 3.123421437256738e+00 -7.526490791345282e-03
2.179508401184201e+01 3.122721948971214e+00 -7.816195514974728e-03
2.188627683197524e+01 3.121995536564682e+00 -8.117048637978484e-03
2.197746965210847e+01 3.121241163959303e+00 -8.429478845543148e-03
2.206866247224170e+01 3.120457755239071e+00 -8.753931267704235e-03
2.215985529237493e+01 3.119644193121792e+00 -9.090868105480054e-03
2.225104811250816e+01 3.118799317372894e+00 -9.440769280278774e-03
2.234224093264139e+01 3.117921923158935e+00 -9.804133107375249e-03
2.243343375277462e+01 3.117010759338567e+00 -1.018147699427280e-02
2.252462657290785e+01 3.116064526688639e+00 -1.057333816478307e-02
2.261581939304108e+01 3.115081876063075e+00 -1.098027440967438e-02
2.270701221317431e+01 3.114061406482048e+00 -1.140286486475478e-02
2.279820503330754e+01 3.113001663148918e+00 -1.184171081727101e-02
2.288939785344077e+01 3.111901135392296e+00 -1.229743654151710e-02
2.298059067357400e+01 3.110758254530560e+00 -1.277069016455772e-02
2.307178349370723e+01 3.109571391655996e+00 -1.326214456297971e-02
2.316297631384046e+01 3.108338855335722e+00 -1.377249829159114e-02
2.325416913397369e+01 3.107058889226431e+00 -1.430247654498940e-02
2.334536195410692e+01 3.105729669599905e+00 -1.485283215291903e-02
2.343655477424015e+01 3.104349302776191e+00 -1.542434661033410e-02
2.352774759437338e+01 3.102915822461221e+00 -1.601783114306852e-02
2.361894041450661e+01 3.101427186985595e+00 -1.663412781000169e-02
2.371013323463984e+01 3.099881276441161e+00 -1.727411064258290e-02
2.380132605477307e+01 3.098275889711935e+00 -1.793868682254632e-02
2.389251887490630e+01 3.096608741395858e+00 -1.862879789860901e-02
2.398371169503953e+01 3.094877458613789e+00 -1.934542104289308e-02
2.407490451517276e+01 3.093079577702087e+00 -2.008957034775216e-02
2.416609733530600e+01 3.091212540785062e+00 -2.086229816360684e-02
2.425729015543923e+01 3.089273692223537e+00 -2.166469647830469e-02
2.434848297557246e+01 3.087260274935716e+00 -2.249789833841279e-02
2.443967579570569e+01 3.085169426586512e+00 -2.336307931272660e-02
2.453086861583892e+01 3.082998175641487e+00 -2.426145899813093e-02
2.462206143597215e+01 3.080743437281534e+00 -2.519430256777794e-02
2.471325425610538e+01 3.078402009174458e+00 -2.616292236134841e-02
2.480444707623861e+01 3.075970567099634e+00 -2.716867951693349e-02
2.489563989637184e+01 3.073445660421977e+00 -2.821298564380983e-02
2.498683271650507e+01 3.070823707411536e+00 -2.929730453507853e-02
2.507802553663830e+01 3.068100990405153e+00 -3.042315391879177e-02
2.516921835677153e+01 3.065273650806728e+00 -3.159210724579535e-02
2.526041117690476e+01 3.062337683922864e+00 -3.280579551206515e-02
2.535160399703799e+01 3.059288933630851e+00 -3.406590911280381e-02
2.544279681717122e+01 3.056123086876252e+00 -3.537419972498265e-02
2.553398963730445e+01 3.052835667997660e+00 -3.673248221435681e-02
2.562518245743768e+01 3.049422032876610e+00 -3.814263656223749e-02
2.571637527757091e+01 3.045877362911090e+00 -3.960660980646596e-02
2.580756809770414e+01 3.042196658811650e+00 -4.112641799008683e-02
2.589876091783737e+01 3.038374734219730e+00 -4.270414811015321e-02
2.598995373797060e+01 3.034406209148598e+00 -4.434196005789713e-02
2.608114655810383e+01 3.030285503248130e+00 -4.604208854015319e-02
2.617233937823706e+01 3.026006828895662e+00 -4.780684497041386e-02
2.626353219837029e+01 3.021564184116269e+00 -4.963861931620311e-02
2.635472501850352e+01 3.016951345337144e+00 -5.153988188756313e-02
2.644591783863675e+01 3.012161859982216e+00 -5.351318504933294e-02
2.653711065876998e+01 3.007189038914826e+00 -5.556116483753682e-02
2.662830347890321e+01 3.002025948738218e+00 -5.768654245756783e-02
2.671949629903644e+01 2.996665403965737e+00 -5.989212563891957e-02
2.681068911916967e+01 2.991099959075097e+00 -6.218080981795930e-02
2.690188193930290e+01 2.985321900463841e+00 -6.455557911661423e-02
